EXPLAIN
TAG	GALVEIS
TITLE	LABEL	0050_EIS_+Westart_PEHV75AH	Test &Identifier
DATE	LABEL	12/18/2023	Date
TIME	LABEL	11:30:22	Time
NOTES	NOTES	1	&Notes...
	
PSTAT	PSTAT	REF3000-24148	Potentiostat
IDCREQ	QUANT	0.00000E+000	DC &Current (A)
FREQINIT	QUANT	1.00000E+004	Initial Fre&q. (Hz)
FREQFINAL	QUANT	1.00000E-002	Final Fre&q. (Hz)
PTSPERDEC	QUANT	5.00000E+000	Points/&decade
IACREQ	QUANT	2.12164E+000	AC &Current (A rms)
AREA	QUANT	0.00000E+000	&Area (cm^2)
CONDIT	TWOPARAM	F	1.50000E+001	0.00000E+000	Conditionin&g	Time(s)	E(V)
DELAY	TWOPARAM	T	3.00000E+001	0.00000E+000	Init. De&lay	Time(s)	Stab.(mV/s)
SPEED	SELECTOR	1	&Optimize for:
THD	SELECTOR	1	T&HD
DRIFTCOR	SELECTOR	0	&Drift Correction
ZGUESS	QUANT	1.00000E-003	E&stimated Z (ohms)
OCVCURVE	TABLE	116
	Pt	T	Vf	Vm	Ach	Over	Temp
	#	s	V vs. Ref.	V	V	bits	deg C
	0	0.258333	2.99767E+000	2.99767E+000	1.63605E-003	...........	-327.72
	1	0.516667	2.99767E+000	2.99765E+000	1.46765E-003	...........	-327.72
	2	0.775	2.99767E+000	2.99765E+000	1.59112E-003	...........	-327.72
	3	1.03333	2.99767E+000	2.99767E+000	1.48805E-003	...........	-327.72
	4	1.29167	2.99766E+000	2.99767E+000	1.61372E-003	...........	-327.72
	5	1.55	2.99766E+000	2.99765E+000	1.48878E-003	...........	-327.72
	6	1.80833	2.99766E+000	2.99765E+000	1.61652E-003	...........	-327.72
	7	2.06667	2.99766E+000	2.99767E+000	1.50698E-003	...........	-327.72
	8	2.325	2.99766E+000	2.99767E+000	1.61245E-003	...........	-327.72
	9	2.58333	2.99766E+000	2.99765E+000	1.49692E-003	...........	-327.72
	10	2.84167	2.99766E+000	2.99766E+000	1.63612E-003	...........	-327.72
	11	3.1	2.99766E+000	2.99768E+000	1.49972E-003	...........	-327.72
	12	3.35833	2.99766E+000	2.99766E+000	1.61658E-003	...........	-327.72
	13	3.61667	2.99766E+000	2.99765E+000	1.46218E-003	...........	-327.72
	14	3.875	2.99766E+000	2.99766E+000	1.62358E-003	...........	-327.72
	15	4.13333	2.99766E+000	2.99766E+000	1.49478E-003	...........	-327.72
	16	4.39167	2.99766E+000	2.99766E+000	1.61205E-003	...........	-327.72
	17	4.65	2.99766E+000	2.99765E+000	1.48465E-003	...........	-327.72
	18	4.90833	2.99766E+000	2.99766E+000	1.61745E-003	...........	-327.72
	19	5.16667	2.99766E+000	2.99768E+000	1.50805E-003	...........	-327.72
	20	5.425	2.99766E+000	2.99765E+000	1.60672E-003	...........	-327.72
	21	5.68333	2.99766E+000	2.99766E+000	1.49998E-003	...........	-327.72
	22	5.94167	2.99766E+000	2.99768E+000	1.64852E-003	...........	-327.72
	23	6.2	2.99767E+000	2.99767E+000	1.49425E-003	...........	-327.72
	24	6.45833	2.99767E+000	2.99766E+000	1.60085E-003	...........	-327.72
	25	6.71667	2.99767E+000	2.99765E+000	1.49085E-003	...........	-327.72
	26	6.975	2.99766E+000	2.99766E+000	1.60605E-003	...........	-327.72
	27	7.23333	2.99766E+000	2.99767E+000	1.48925E-003	...........	-327.72
	28	7.49167	2.99766E+000	2.99766E+000	1.60052E-003	...........	-327.72
	29	7.75	2.99766E+000	2.99765E+000	1.46445E-003	...........	-327.72
	30	8.00833	2.99766E+000	2.99767E+000	1.61412E-003	...........	-327.72
	31	8.26667	2.99766E+000	2.99767E+000	1.47972E-003	...........	-327.72
	32	8.525	2.99766E+000	2.99766E+000	1.60512E-003	...........	-327.72
	33	8.78333	2.99766E+000	2.99766E+000	1.49272E-003	...........	-327.72
	34	9.04167	2.99766E+000	2.99767E+000	1.60738E-003	...........	-327.72
	35	9.3	2.99766E+000	2.99768E+000	1.50218E-003	...........	-327.72
	36	9.5583	2.99766E+000	2.99765E+000	1.60378E-003	...........	-327.72
	37	9.8167	2.99767E+000	2.99767E+000	1.50878E-003	...........	-327.72
	38	10.075	2.99767E+000	2.99769E+000	1.64385E-003	...........	-327.72
	39	10.3333	2.99767E+000	2.99765E+000	1.50585E-003	...........	-327.72
	40	10.5917	2.99767E+000	2.99766E+000	1.63372E-003	...........	-327.72
	41	10.85	2.99767E+000	2.99767E+000	1.50592E-003	...........	-327.72
	42	11.1083	2.99767E+000	2.99768E+000	1.62358E-003	...........	-327.72
	43	11.3667	2.99767E+000	2.99765E+000	1.49885E-003	...........	-327.72
	44	11.625	2.99767E+000	2.99767E+000	1.62332E-003	...........	-327.72
	45	11.8833	2.99767E+000	2.99768E+000	1.52092E-003	...........	-327.72
	46	12.1417	2.99767E+000	2.99768E+000	1.63398E-003	...........	-327.72
	47	12.4	2.99767E+000	2.99767E+000	1.50245E-003	...........	-327.72
	48	12.6583	2.99767E+000	2.99766E+000	1.62938E-003	...........	-327.72
	49	12.9167	2.99767E+000	2.99769E+000	1.51298E-003	...........	-327.72
	50	13.175	2.99767E+000	2.99768E+000	1.62338E-003	...........	-327.72
	51	13.4333	2.99767E+000	2.99767E+000	1.51285E-003	...........	-327.72
	52	13.6917	2.99767E+000	2.99766E+000	1.60898E-003	...........	-327.72
	53	13.95	2.99767E+000	2.99769E+000	1.51932E-003	...........	-327.72
	54	14.2083	2.99767E+000	2.99767E+000	1.63638E-003	...........	-327.72
	55	14.4667	2.99767E+000	2.99767E+000	1.48798E-003	...........	-327.72
	56	14.725	2.99767E+000	2.99767E+000	1.62658E-003	...........	-327.72
	57	14.9833	2.99767E+000	2.99768E+000	1.50312E-003	...........	-327.72
	58	15.2417	2.99767E+000	2.99766E+000	1.63052E-003	...........	-327.72
	59	15.5	2.99767E+000	2.99767E+000	1.50805E-003	...........	-327.72
	60	15.7583	2.99767E+000	2.99768E+000	1.62465E-003	...........	-327.72
	61	16.0167	2.99767E+000	2.99769E+000	1.51032E-003	...........	-327.72
	62	16.275	2.99767E+000	2.99767E+000	1.62832E-003	...........	-327.72
	63	16.5333	2.99768E+000	2.99766E+000	1.50845E-003	...........	-327.72
	64	16.7917	2.99768E+000	2.99768E+000	1.63272E-003	...........	-327.72
	65	17.05	2.99767E+000	2.99767E+000	1.49958E-003	...........	-327.72
	66	17.3083	2.99767E+000	2.99767E+000	1.61132E-003	...........	-327.72
	67	17.5667	2.99767E+000	2.99767E+000	1.50472E-003	...........	-327.72
	68	17.825	2.99767E+000	2.99768E+000	1.62605E-003	...........	-327.72
	69	18.0833	2.99767E+000	2.99769E+000	1.52258E-003	...........	-327.72
	70	18.3417	2.99767E+000	2.99768E+000	1.64192E-003	...........	-327.72
	71	18.6	2.99768E+000	2.99767E+000	1.51205E-003	...........	-327.72
	72	18.8583	2.99768E+000	2.99769E+000	1.65005E-003	...........	-327.72
	73	19.1167	2.99768E+000	2.99768E+000	1.51285E-003	...........	-327.72
	74	19.375	2.99768E+000	2.99768E+000	1.63452E-003	...........	-327.72
	75	19.6333	2.99768E+000	2.99768E+000	1.49545E-003	...........	-327.72
	76	19.8917	2.99768E+000	2.99770E+000	1.63638E-003	...........	-327.72
	77	20.15	2.99768E+000	2.99768E+000	1.52552E-003	...........	-327.72
	78	20.4083	2.99768E+000	2.99767E+000	1.63978E-003	...........	-327.72
	79	20.6667	2.99768E+000	2.99768E+000	1.50678E-003	...........	-327.72
	80	20.925	2.99768E+000	2.99768E+000	1.64692E-003	...........	-327.72
	81	21.1833	2.99768E+000	2.99767E+000	1.51732E-003	...........	-327.72
	82	21.4417	2.99768E+000	2.99766E+000	1.61885E-003	...........	-327.72
	83	21.7	2.99768E+000	2.99768E+000	1.50025E-003	...........	-327.72
	84	21.9583	2.99767E+000	2.99769E+000	1.62625E-003	...........	-327.72
	85	22.2167	2.99767E+000	2.99767E+000	1.34032E-003	...........	-327.72
	86	22.475	2.99768E+000	2.99768E+000	1.28278E-003	...........	-327.72
	87	22.7333	2.99768E+000	2.99769E+000	1.28432E-003	...........	-327.72
	88	22.9917	2.99768E+000	2.99769E+000	1.29158E-003	...........	-327.72
	89	23.25	2.99768E+000	2.99767E+000	1.28165E-003	...........	-327.72
	90	23.5083	2.99768E+000	2.99768E+000	1.27685E-003	...........	-327.72
	91	23.7667	2.99768E+000	2.99769E+000	1.29658E-003	...........	-327.72
	92	24.025	2.99768E+000	2.99770E+000	1.29338E-003	...........	-327.72
	93	24.2833	2.99768E+000	2.99768E+000	1.28552E-003	...........	-327.72
	94	24.5417	2.99769E+000	2.99767E+000	1.28532E-003	...........	-327.72
	95	24.8	2.99769E+000	2.99769E+000	1.29245E-003	...........	-327.72
	96	25.0583	2.99768E+000	2.99770E+000	1.29025E-003	...........	-327.72
	97	25.3167	2.99768E+000	2.99767E+000	1.27325E-003	...........	-327.72
	98	25.575	2.99769E+000	2.99768E+000	1.27745E-003	...........	-327.72
	99	25.8333	2.99769E+000	2.99769E+000	1.27845E-003	...........	-327.72
	100	26.0917	2.99769E+000	2.99769E+000	1.29185E-003	...........	-327.72
	101	26.35	2.99768E+000	2.99768E+000	1.28812E-003	...........	-327.72
	102	26.6083	2.99769E+000	2.99769E+000	1.27918E-003	...........	-327.72
	103	26.8667	2.99769E+000	2.99770E+000	1.29292E-003	...........	-327.72
	104	27.125	2.99769E+000	2.99768E+000	1.28372E-003	...........	-327.72
	105	27.3833	2.99769E+000	2.99766E+000	1.27572E-003	...........	-327.72
	106	27.6417	2.99768E+000	2.99768E+000	1.28725E-003	...........	-327.72
	107	27.9	2.99768E+000	2.99769E+000	1.28812E-003	...........	-327.72
	108	28.1583	2.99768E+000	2.99767E+000	1.27685E-003	...........	-327.72
	109	28.4167	2.99768E+000	2.99767E+000	1.28145E-003	...........	-327.72
	110	28.675	2.99768E+000	2.99770E+000	1.29058E-003	...........	-327.72
	111	28.9333	2.99768E+000	2.99770E+000	1.28912E-003	...........	-327.72
	112	29.1917	2.99768E+000	2.99768E+000	1.27718E-003	...........	-327.72
	113	29.45	2.99769E+000	2.99769E+000	1.28012E-003	...........	-327.72
	114	29.7083	2.99769E+000	2.99771E+000	1.28312E-003	...........	-327.72
	115	29.9667	2.99769E+000	2.99769E+000	1.28432E-003	...........	-327.72
EOC	QUANT	2.997692	Open Circuit (V)
PSTATMODEL	IQUANT	5	Pstat Model
PSTATSECTION	LABEL	REF3000-24148	Pstat Section
PSTATSERIALNO	LABEL	24148	Pstat Serial Number
CTRLMODE	IQUANT	0	Control Mode
ELECTROMETER	IQUANT	0	RE=0 or CS=1
IESTAB	IQUANT	0	I/E Stability
CASPEED	IQUANT	4	Control Amp Speed
CONVENTION	IQUANT	1	Current Convention
ICHRANGE	IQUANT	2	Ich Range
ICHRANGEMODE	TOGGLE	F	Ich Auto Range
ICHOFFSETENABLE	TOGGLE	T	Ich Offset Enable
ICHOFFSET	QUANT	0	Ich Offset (V)
ICHFILTER	IQUANT	3	Ich Filter
VCHRANGE	IQUANT	2	Vch Range
VCHRANGEMODE	TOGGLE	F	Vch Auto Range
VCHOFFSETENABLE	TOGGLE	T	Vch Offset Enable
VCHOFFSET	QUANT	0	Vch Offset (V)
VCHFILTER	IQUANT	3	Vch Filter
ACHRANGE	IQUANT	2	Ach Range
ACHOFFSETENABLE	TOGGLE	F	Ach Offset Enable
ACHOFFSET	QUANT	0	Ach Offset (V)
ACHFILTER	IQUANT	1	Ach Filter
IERANGELOWERLIMIT	IQUANT	2	I/E Range Lower Limit
IERANGEMODE	TOGGLE	F	I/E AutoRange
IERANGE	IQUANT	11	I/E Range
POSFEEDENABLE	TOGGLE	F	Positive Feedback IR Comp
POSFEEDRESISTANCE	QUANT	0	Positive Feedback Resistance (ohm)
ACHSELECT	IQUANT	4	Ach Select
SENSECABLEID	IQUANT	14	Sense Cable ID
PWRCABLEID	IQUANT	7	Power Cable ID
DCCALDATE	LABEL	12/13/2023	DC Calibration Date
ACCALDATE	LABEL	12/13/2023	AC Calibration Date
THERMOSELECT	IQUANT	1	Thermo Select
FRAMEWORKVERSION	LABEL	7.10.2	Framework Version
INSTRUMENTVERSION	LABEL	4.90	Instrument Version
COMMVERSION	LABEL	2.24	Communications Version
CPUPLDVERSION	LABEL	0.00	CPU PLD Version
CTRLPLDVERSION	LABEL	0.00	CTRL PLD Version
PSTATPLDVERSION	LABEL	0.00	PSTAT PLD Version
COMPLIANCEVOLTAGE	IQUANT	0	Compliance Voltage
ZCURVE	TABLE
	Pt	Time	Freq	Zreal	Zimag	Zsig	Zmod	Zphz	Idc	Vdc	IERange	Imod	Vmod	Temp	Ithd	Vthd	IHr1	IHi1	VHr1	VHi1	IHr2	IHi2	VHr2	VHi2	IHr3	IHi3	VHr3	VHi3	IHr4	IHi4	VHr4	VHi4	IHr5	IHi5	VHr5	VHi5	IHr6	IHi6	VHr6	VHi6	IHr7	IHi7	VHr7	VHi7	IHr8	IHi8	VHr8	VHi8	IHr9	IHi9	VHr9	VHi9	IHr10	IHi10	VHr10	VHi10
	#	s	Hz	ohm	ohm	V	ohm	°	A	V	#	A	V	°C	#	#	A	A	V	V	A	A	V	V	A	A	V	V	A	A	V	V	A	A	V	V	A	A	V	V	A	A	V	V	A	A	V	V	A	A	V	V	A	A	V	V
	0	5	10078.13	0.000651	0.0044383	1	0.0044857	81.65603	-0.0022653	2.997566	12	2.079952	0.0093294	-327.7158	0.0287265	0.1313104	173.1611	73.86108	-0.2063782	0.8187926	-0.1436455	2.19811	-0.0188862	-0.0003617	-1.224976	0.110753	-0.0035205	-0.0153154	0.7708642	-0.8778003	0.0158702	0.0122283	3.957937	-1.91241	0.046274	0.0801792	-0.2125675	0.4481223	-0.0118687	-0.0043269	-0.4130788	-0.4174453	0.0109862	-0.0134909	0.1071634	-0.1303397	0.0044615	0.0031	1.174914	0.4264473	-0.0123897	0.0453064	0.087438	0.062098	-0.0023195	0.0039449
	1	7	6328.125	0.0005944	0.0028192	1	0.0028811	78.09345	-0.0020155	2.997575	12	2.091554	0.006027	-327.7158	0.0211755	0.1016179	-170.1445	82.99146	-0.3380307	-0.4281422	1.479284	0.2508779	-0.0009775	0.0076336	-0.1142035	-0.7233338	0.0051558	-0.0015264	-0.5938252	0.3648825	-0.0044542	-0.0067194	0.5690238	-3.248654	0.0439354	0.0042915	-0.3245576	-0.2617205	0.0037404	-0.0056193	-0.3429699	0.4279118	-0.0084622	-0.0055852	0.2409822	6.335974E-005	0.0003445	0.0052315	-0.8561455	0.8076466	-0.0208428	-0.0189829	0.000104	-0.0237039	0.0005057	-0.0001144
	2	8	3984.375	0.0005597	0.0017876	1	0.0018732	72.61589	-0.0024411	2.997585	12	2.097171	0.0039293	-327.7158	0.0158219	0.0766925	-135.3174	133.1115	-0.3144653	-0.1661131	0.974724	-0.3243227	0.0011432	0.0029848	-0.257845	-0.6008171	0.0026324	-0.0013756	-0.0865871	0.3903146	-0.0030363	-0.0004847	-2.362609	-0.619579	0.0034779	-0.0204856	-0.1882878	0.2673349	-0.0028508	-0.0016673	0.4194155	0.364095	-0.0038774	0.0053031	-0.0456987	-0.2108314	0.0029415	-0.0009279	0.9319918	-0.2825831	0.0055082	0.0137669	-0.0067298	0.0235366	-0.0004839	-6.961824E-005
	3	10	2527.573	0.0005389	0.0011363	1	0.0012576	64.62769	-0.0019048	2.997566	12	2.100443	0.0026422	-327.7158	0.0122858	0.0584955	-156.2162	-108.3442	0.0383074	-0.2360602	-0.5852778	0.417518	-0.0009053	-0.0014901	-0.5321261	0.3499007	-0.0013276	-0.0017893	0.0022834	0.2263376	-0.000798	-0.0002298	-1.011913	-1.555764	0.0079868	-0.0063124	-0.0959426	-0.2575697	0.0018833	-0.0007452	-0.0688974	-0.5441423	0.004169	-0.0008762	-0.1481267	-0.0742709	0.0004895	-0.0012763	0.7705164	-0.1953998	0.0025883	0.0072279	-0.0150916	-0.0363099	0.0005019	-0.0002317
	4	12	1577.524	0.0005343	0.0007021	1	0.0008823	52.72976	-0.0020022	2.997577	12	2.104859	0.0018577	-327.7158	0.0083804	0.040118	190.4859	3.037105	0.0999032	0.1352451	0.0307783	0.4602223	-0.0001283	0.0005852	-0.1987033	-0.2818066	0.002046	-0.0009356	0.1232108	-0.117275	0.0009465	0.0001923	-0.3662262	-1.236503	0.0046933	-0.0012665	0.1013909	0.2486717	-0.0010958	0.0001934	-0.0990876	-0.4008527	0.0016656	-0.0013727	0.0021347	-0.0231598	0.0004078	-0.000191	-0.2940789	-0.4329817	0.0023856	-0.0017781	0.0395535	-0.0816267	0.0006905	0.0002992
	5	13	998.264	0.0005295	0.0004288	1	0.0006814	38.99562	-0.0017717	2.997576	12	2.108597	0.0014371	-327.7158	0.0051417	0.0212872	-167.5929	91.3002	-0.1279563	-0.0233796	0.2768981	0.1256794	0.0000995	7.009506E-005	0.1911348	-0.1667782	-1.478195E-005	-0.0002132	-0.0477725	-0.0344544	5.048513E-005	-0.00017	0.3189537	-0.6669999	0.0015886	-0.0002271	-0.0309407	-0.1344287	6.771088E-005	-7.200242E-005	-0.1814666	-0.132982	0.0004094	-0.0001161	-0.0423065	0.0221008	-0.0001423	-0.0002111	-0.4193942	0.0825354	-0.0014517	-0.0015693	-0.0060144	0.0369466	-0.0004081	-8.630754E-005
	6	15	627.7902	0.0005302	0.0002494	1	0.0005859	25.18989	-0.0020014	2.99758	12	2.113427	0.0012386	-327.7158	0.002808	0.013105	188.2756	-33.80075	0.1082947	0.0289648	0.0857853	0.1626643	0.0002889	-0.0005898	-0.0993662	-0.0416941	-0.0008618	-2.217293E-005	-0.0060226	-0.0340062	0.0003879	-0.0003526	-0.3408551	-0.2216426	-7.343293E-005	-0.0005147	0.070412	0.035319	0.0001047	0.0002217	-0.092177	0.000769	8.106232E-005	0.0001197	-0.0045334	-0.0147465	-0.0001509	-0.0003264	-0.2318519	0.0858575	-0.0001085	-0.0004637	0.016283	-0.0155101	-2.276898E-005	3.051758E-005
	7	17	397.9953	0.0005543	0.000141	1	0.0005719	14.27674	-0.0018271	2.997574	12	2.115969	0.0012105	-327.7158	0.0018911	0.008104	-148.0235	-121.5208	-0.064961	-0.0882303	-0.1211298	0.0509982	-1.072884E-006	-0.0001082	-0.1066642	0.0204637	-0.0002686	2.717972E-005	0.0031904	0.0175521	0.0003828	-3.862382E-005	0.0269184	-0.253475	1.263619E-005	0.0003982	0.032357	-0.0357249	0.0001185	0.0001106	0.0747201	-0.0576121	-3.123283E-005	-0.0002771	0.0106421	-0.0022056	-2.241135E-005	5.114079E-005	0.0560346	0.1489673	-2.43187E-005	0.0005121	-0.0032048	0.0110061	-0.0001013	-0.0001295
	8	18	252.4038	0.0005711	6.724112E-005	1	0.000575	6.715027	-0.0021047	2.997584	12	2.11959	0.0012192	-327.7158	0.0014931	0.009435	-75.71623	176.2695	-0.0550854	0.0956205	0.0544022	-0.0667631	-0.0002737	-0.0002983	-0.0666088	-0.0268953	0.0004016	-0.000253	0.0060228	-0.0038006	-6.121398E-005	0.0002632	-0.0748202	0.201296	0.0006543	-2.336502E-005	0.02782	0.0253938	-0.0002197	-2.145767E-006	0.02839	-0.0566961	6.556511E-005	-0.0001998	-0.0053134	-0.0053221	-0.0001366	0.0001216	-0.1308006	-0.0239135	-9.536744E-006	-0.0001462	-0.0086129	0.0070787	-0.0002046	-6.264449E-005
	9	20	158.3615	0.0005895	1.64087E-005	1	0.0005897	1.594534	-0.0020609	2.997576	12	2.118828	0.0012498	-327.7158	0.0010031	0.0082898	179.7536	-66.82875	0.1070795	-0.036472	0.0511956	0.0362796	-8.535386E-005	0.0002667	-0.0591514	0.0146655	0.0004735	-0.0002558	-0.0078169	0.0032134	3.051758E-005	0.0003977	-0.1308034	0.0399296	-2.622604E-006	-0.00035	0.0190931	-0.0190675	0.0000983	0.0002205	-0.0117948	0.0833168	0.0002226	0.0002248	0.0011806	-0.0032187	0.0001737	6.771088E-005	0.0382482	0.0347117	0.0001495	5.00679E-006	-0.0042026	-0.0083597	-0.0001135	-3.683568E-005
	10	21	100.4464	0.000614	-1.377479E-005	1	0.0006142	-1.285125	-0.0023894	2.997602	12	2.121027	0.0013031	-327.7158	0.0008762	0.0112405	-80.71376	-174.1812	-0.0519869	-0.1058671	-0.0173644	-0.0041514	-0.0007257	0.0005661	-0.0435027	-0.053642	-0.0002546	0.0002071	0.0002522	0.0168084	-0.0001209	-0.0001153	0.0359193	0.1112785	-0.0005183	0.0004935	-0.0086309	0.018167	-0.0001391	-0.0001311	-0.0204344	0.0338203	0.000239	0.000169	0.0022427	-0.002334	-0.0001228	-1.502037E-005	0.0427444	-0.0733349	2.455711E-005	-0.0002234	0.0077171	0.0029162	-0.0001341	-0.0002377
	11	23	63.3446	0.0006365	-3.829096E-005	1	0.0006376	-3.442691	-0.0024215	2.997587	12	2.120727	0.0013527	-327.7158	0.0005186	0.0180918	140.011	-131.3024	0.0841086	-0.0889675	0.0250545	-0.008521	0.0002096	-0.0001904	0.0002568	0.0348818	0.0002623	-0.0005928	0.0112098	0.0067459	0.0004706	5.352497E-005	0.0020921	0.0719253	-0.0017002	0.0009093	-0.0140948	-0.0038352	0.0001848	0.0001509	0.0133706	-0.0302383	-3.862382E-005	0.000109	-0.0022042	0.0017824	-0.0001588	0.0001035	-0.0314032	-0.0176674	-0.000563	-5.269052E-005	0.0055282	-0.0002369	-2.17557E-006	-0.0001953
	12	25	39.72458	0.0006362	-5.71461E-005	1	0.0006387	-5.133007	-0.0019967	2.997591	12	2.120247	0.0013547	-327.7158	0.0003759	0.0014347	-157.3726	109.8207	-0.0938172	0.0789404	0.0177262	-0.0034331	8.678436E-005	-1.803041E-005	0.0099673	-0.0233305	2.384186E-007	0.0001065	0.0033178	0.0058717	4.029274E-005	3.963709E-005	0.0336475	-0.041498	1.716614E-005	-4.363061E-005	-0.002244	-0.0082574	-2.503395E-005	1.597405E-005	-0.0215778	-0.0037552	-8.106233E-006	-2.741814E-006	-0.0019755	-0.0015913	-2.360344E-005	-6.079675E-006	-0.0074286	0.026685	-6.175042E-005	1.585484E-005	-0.0016582	0.0022862	-2.69413E-005	-1.788139E-006
	13	26	24.93351	0.0006589	-7.458661E-005	1	0.0006631	-6.45874	-0.0020959	2.997585	12	2.119809	0.001406	-327.7158	0.0003036	0.0018961	172.1007	84.81064	0.1197681	0.0430068	-0.0057328	0.0070312	-7.152558E-006	0.0001439	0.0073631	-0.0187361	-1.883507E-005	-4.211069E-005	0.0009723	-3.975631E-005	1.978874E-005	7.867813E-006	-0.0035343	0.0477204	3.743172E-005	-5.084277E-005	0.0032325	-0.0066314	-9.393693E-005	2.765655E-005	0.0102754	0.0158608	-7.033349E-005	-2.205372E-005	0.001946	-0.0007286	7.581711E-005	5.495548E-005	-0.0089517	0.0106697	-5.006791E-006	5.00679E-006	0.0017605	0.0011768	-4.100801E-005	-7.319451E-005
	14	28	15.83615	0.0006812	-9.270463E-005	1	0.0006875	-7.749889	-0.001992	2.997595	12	2.120064	0.0014579	-327.7158	0.0002516	0.0016222	76.56686	175.9485	0.068517	0.112773	-0.0106196	0.0008602	-5.769731E-005	-4.941226E-005	0.0151181	0.0116173	-0.0001221	-6.234647E-005	-0.000278	0.0057651	-5.793572E-005	-9.953977E-006	0.0208775	-0.032797	5.364418E-005	4.36902E-005	-0.0042429	0.0012351	8.583069E-006	-2.378225E-005	0.0083498	0.0006738	1.931191E-005	3.087521E-005	0.0026577	-0.0008982	2.145767E-005	4.124641E-005	-0.0030278	0.0141158	-4.506112E-005	-2.253056E-005	7.879734E-005	0.0018386	-3.266336E-005	-7.271768E-005
	15	30	9.93114	0.0007127	-0.0001126	1	0.0007216	-8.977349	-0.0020803	2.997588	12	2.120166	0.0015303	-327.7158	0.0004005	0.001229	44.0117	-186.7802	0.010319	-0.1381244	-0.001164	-0.0418593	-2.837181E-005	-2.622604E-005	0.0177405	-0.0312579	-9.202958E-005	0.0001	-0.0007627	-0.0189912	-4.291535E-006	-1.841784E-005	0.0285844	-0.0350178	3.814697E-005	-2.878904E-005	0.0041464	-0.0065844	-2.813339E-005	6.914139E-006	0.0019454	-0.0017856	4.529953E-006	3.516674E-005	0.0020614	-0.0087179	-6.91414E-006	2.288818E-005	-0.0053497	-0.0163202	1.66893E-005	5.412102E-005	0.0005951	-0.003637	-1.907349E-006	-2.217293E-005
	16	31	6.317385	0.0007514	-0.0001298	1	0.0007626	-9.80101	-0.0031978	2.997583	12	2.120389	0.0016174	-327.7158	0.000418	0.0009836	-191.4784	12.94845	-0.1422424	0.0346104	0.0610361	-0.0056432	5.364418E-005	-1.326203E-005	0.0394626	-0.0053355	-8.606912E-005	6.386638E-005	0.004425	-0.0014178	-1.764298E-005	-4.529954E-006	-0.0236592	0.0161089	-2.455712E-005	-7.271768E-006	0.0038993	0.0002185	1.621246E-005	9.23872E-006	0.0069776	0.0010344	-3.814698E-006	2.765655E-005	-0.0002859	0.0003009	8.583069E-006	2.002716E-005	0.0128329	-0.0043573	-3.767015E-005	7.152557E-006	0.0016012	-0.0004671	-1.788139E-005	-4.255773E-005
	17	34	3.945707	0.0007992	-0.0001434	1	0.0008119	-10.17218	-0.0024395	2.997599	12	2.119614	0.0017215	-327.7158	0.0003032	0.0016594	145.418	-125.1333	0.0982928	-0.1208977	0.0195038	-0.0280924	0.0000982	-0.0001557	0.0165584	0.0041401	1.120567E-005	-1.880527E-005	0.0044096	-0.0084645	1.144409E-005	-3.117323E-005	-0.0338552	0.013554	4.816055E-005	-1.698733E-005	0.0032873	-0.0125585	-3.099442E-005	9.36389E-005	0.000531	-0.0149723	5.245209E-005	5.054474E-005	0.0001507	-0.0059986	-5.984307E-005	-8.666516E-005	-0.0024399	-0.0073941	2.145767E-005	3.361702E-005	8.499622E-005	-0.0035278	-1.192093E-006	-3.218652E-005
	18	36	2.504006	0.0008442	-0.0001502	1	0.0008575	-10.08954	-0.0027158	2.99762	12	2.119771	0.0018182	-327.7158	0.0003102	0.0014135	187.0955	-42.49074	0.151607	-0.0640011	0.0391519	-0.0168134	0.0001061	-3.254415E-005	-0.0033224	0.0028751	0.0001068	-0.0001388	0.0028389	-0.001152	-1.478195E-005	-3.153086E-005	0.0164933	-0.0360248	1.335144E-005	-6.502868E-005	0.0027809	-0.0006329	2.193451E-005	-1.329184E-005	0.0008671	-0.002826	1.955032E-005	-2.872944E-005	0.0025492	-0.0006075	1.0252E-005	-1.966953E-005	0.0046668	0.0086279	-1.454353E-005	-2.753735E-005	0.0025268	-0.0010684	-7.152558E-006	-4.613401E-005
	19	40	1.584686	0.0008893	-0.0001528	1	0.0009023	-9.74634	4.279986E-005	2.997587	12	2.119107	0.0019127	-327.7158	0.0023197	0.0023253	86.55009	171.1613	0.1031506	0.139035	-0.0762119	-0.3238582	-0.000175	-0.0002633	-0.0010064	-0.1814674	-0.0001459	-0.0001137	-0.0027597	-0.1254189	-2.932549E-005	-7.56383E-005	0.0250483	-0.1278103	7.152557E-007	-0.000105	0.0011725	-0.0851188	4.053116E-006	-4.720689E-005	0.0078714	-0.0717202	7.390976E-006	-3.159046E-005	0.0104047	-0.063571	1.0252E-005	-3.671647E-005	0.0173315	-0.048554	-1.525879E-005	-4.041196E-005	0.0091785	-0.0478506	3.099442E-006	-6.031991E-005
	20	44	0.999041	0.0009304	-0.0001563	1	0.0009435	-9.53756	-0.0004626	2.997583	12	2.119142	0.002	-327.7158	0.0019586	0.0022464	75.98779	176.1084	0.0982645	0.1520226	-0.0569532	-0.2755695	-0.000154	-0.0002725	0.0049747	-0.1517714	-0.0001824	-9.432436E-005	-0.0013063	-0.1067525	-8.344651E-006	-7.81417E-005	0.0335308	-0.1041278	4.982948E-005	-7.790328E-005	0.003009	-0.0734689	3.099442E-006	-2.622604E-005	0.0077657	-0.0619906	2.31266E-005	-2.384186E-005	0.0098935	-0.0527839	9.775162E-006	-1.621246E-005	0.012682	-0.0377703	-1.28746E-005	-6.341935E-005	0.0079939	-0.0408793	-1.096726E-005	-6.318093E-005
	21	48	0.6334459	0.0009654	-0.0001657	1	0.0009796	-9.73809	-0.0019343	2.99773	12	1.57373	0.001542	-327.7158	3.268749E-005	0.000872	3.364785	-142.398	-0.0203524	-0.1380752	-0.0043488	-0.0004287	1.549721E-005	-7.17342E-005	-0.000122	-0.0010526	1.072884E-005	8.964539E-005	0.0001561	-7.80169E-005	5.483627E-006	-1.692772E-005	8.731335E-005	-0.0010457	6.437302E-006	7.212162E-006	-2.285838E-005	-0.0001384	-6.91414E-006	4.470348E-006	-0.000131	0.0003753	-4.768373E-007	-1.418591E-005	5.956367E-005	-2.611429E-006	-1.215935E-005	-8.463861E-006	-2.541766E-005	-0.0002969	1.192093E-006	-3.57628E-006	0.0002337	5.382672E-005	-1.454353E-005	-1.227856E-005
	22	61	0.400641	0.0010024	-0.0001858	1	0.0010195	-10.50236	-0.0018704	2.997816	12	2.121652	0.0021636	-327.7158	4.282083E-005	0.0017319	4.600953	-191.9749	-0.0310719	-0.193344	-0.008145	-0.0004443	7.152557E-005	-0.000276	0.0003194	-0.0001259	2.527237E-005	0.0001072	-0.0001271	-1.868978E-005	3.099442E-006	-6.008149E-005	-0.0004637	-0.0004956	1.311302E-005	-7.790328E-005	0.0002969	-4.802459E-005	2.360344E-005	-3.886224E-005	0.0001487	0.0005387	1.144409E-005	-1.692772E-005	-7.423014E-005	4.393235E-005	-9.536744E-007	-3.83854E-005	-0.0002523	5.191937E-005	1.382828E-005	-5.88894E-005	7.946044E-005	1.503155E-005	-8.344651E-006	-6.377698E-005
	23	75	0.2520161	0.0010376	-0.0002228	1	0.0010612	-12.11989	-0.0018909	2.99789	12	2.121585	0.002252	-327.7158	4.007E-005	0.0020104	-8.950552	-191.8152	-0.0525711	-0.1969269	-0.007534	0.00043	6.151199E-005	-0.0003491	0.0005204	-0.0002217	9.489059E-005	0.0001065	0.0002262	-8.585305E-005	-3.814698E-006	-7.998944E-005	-0.0002073	-0.0011557	-1.549721E-005	-7.903577E-005	0.000393	-0.000228	1.454353E-005	-2.861023E-005	0.000348	4.641712E-005	3.695488E-005	-1.227856E-005	-5.275012E-006	2.362579E-005	3.814697E-006	-3.671647E-005	-0.0001132	-0.0003922	7.152557E-007	-5.066396E-005	-6.163121E-005	-1.649559E-005	-9.775163E-006	-4.947187E-005
	24	96	0.1588983	0.0010771	-0.0002829	1	0.0011136	-14.71695	-0.0018959	2.998019	12	2.121641	0.0023633	-327.7158	3.730655E-005	0.0026588	-3.901022	-191.9894	-0.0588837	-0.2056362	-0.0065639	0.0001273	0.0001287	-0.0004896	0.0004855	-0.0009895	8.583069E-005	9.226799E-005	-0.0008044	-1.300126E-006	1.454353E-005	-0.000109	-0.0001008	-0.0001336	-1.478195E-005	-0.0001489	0.0013135	-6.895141E-005	1.120567E-005	-5.239249E-005	0.0003413	-0.0007992	3.0756E-005	-1.966953E-005	-0.0009595	-0.0001709	2.264977E-005	-3.039837E-005	-0.0003227	0.0008313	-6.437303E-006	-8.046628E-005	0.0014179	0.0003008	-2.288819E-005	-6.461144E-005
	25	121	0.1001603	0.0011264	-0.0003747	1	0.0011871	-18.40119	-0.0018893	2.998484	12	2.121658	0.0025194	-327.7158	3.918932E-005	0.0046025	-0.7165056	-192.0292	-0.0730224	-0.2160238	-0.0074179	-9.323285E-005	0.0001743	-0.0009013	0.0002879	-0.0001845	9.417534E-005	-0.0001061	0.0001219	1.473725E-005	3.957748E-005	-0.0002642	4.220009E-005	-0.0010419	3.910065E-005	-0.0002764	0.0004881	-5.421416E-005	2.574921E-005	-0.0001493	0.0001184	-8.445234E-006	4.291534E-005	-0.0001037	0.000106	-2.297387E-005	3.266335E-005	-0.0001432	-3.799797E-006	-0.0003349	3.170967E-005	-0.0001348	2.275407E-005	-3.822149E-005	-7.390977E-006	-0.0001144
	26	158	0.0631739	0.0011885	-0.0005103	1	0.0012934	-23.23753	-0.0018901	2.999658	12	2.121635	0.002745	-327.7158	3.939734E-005	0.00684	1.288264	-192.0241	-0.0966456	-0.22888	-0.0074683	-0.000266	0.0002248	-0.0014547	0.0002087	-0.0003305	0.0001335	-0.0003133	-3.939868E-005	-8.825214E-006	6.151199E-005	-0.000419	-2.400577E-005	-0.0009292	3.671646E-005	-0.0004151	0.0005015	7.614493E-006	6.341934E-005	-0.0002738	-1.465529E-005	0.0001105	5.936623E-005	-0.0001945	-4.068018E-005	-1.006574E-005	5.507469E-005	-0.0002155	-2.324581E-006	-0.0003191	3.743172E-005	-0.0002147	4.889071E-005	1.363829E-005	1.883507E-005	-0.0001857
	27	223	0.0398258	0.0012642	-0.0007116	1	0.0014507	-29.37433	-0.0019008	2.999984	12	2.121634	0.0030788	-327.7158	3.856673E-005	0.0047919	2.553806	-192.0115	-0.1335516	-0.2445761	-0.0072732	-0.0002777	0.0001969	-0.0012566	0.0001104	-0.0001751	0.0000997	1.138449E-005	0.0001517	2.58591E-005	3.33786E-006	-0.0002102	6.797165E-005	-0.0011663	1.66893E-005	-0.00023	0.0003141	-1.003966E-005	3.98159E-005	-0.0001178	7.358938E-005	-9.145216E-005	4.601479E-005	-6.747247E-005	-0.0001132	1.553819E-005	2.479553E-005	-0.0001092	8.176267E-005	-0.0005255	1.311302E-005	-0.0000987	-0.0001747	-2.141297E-005	-3.57628E-006	-0.0001158
	28	299	0.0251206	0.0013702	-0.0009976	1	0.0016948	-36.0565	-0.0018963	3.000598	12	2.121625	0.0035969	-327.7158	3.824887E-005	0.0049117	3.350827	-191.9984	-0.1870666	-0.266444	-0.0072198	-0.0002879	5.936623E-005	-0.0015604	0.0001945	-0.0004793	0.0001085	0.000142	0.0001531	1.15782E-005	2.288818E-005	-0.0001417	0.0001364	-0.0010139	-1.716614E-005	-0.0002049	0.0002988	1.186319E-005	3.004074E-005	-6.824733E-005	0.0001935	-0.0001283	2.241135E-005	-1.609326E-005	-2.05636E-005	8.40053E-006	5.245209E-006	-6.985665E-005	7.879734E-005	-0.0002902	2.145767E-006	-6.759168E-005	-0.0004003	-7.837267E-005	-1.239777E-005	-8.821488E-005
	29	420	0.0158522	0.0015098	-0.0014038	1	0.0020616	-42.91711	-0.0019115	3.00158	12	2.121625	0.0043753	-327.7158	3.619865E-005	0.0053939	3.853237	-191.9889	-0.2638335	-0.2953192	-0.0068299	-0.0004816	-0.0002356	-0.0020882	0.0002829	-0.0002479	0.0001149	0.0002952	0.00017	4.499406E-005	-5.698205E-005	-2.586842E-005	0.0001749	-0.0008852	-3.218652E-005	-0.0001832	0.0003789	2.493151E-005	2.646446E-005	-3.677608E-005	6.636232E-005	0.0001576	3.385544E-005	-1.299381E-005	-0.0002613	-2.133101E-005	-4.768373E-006	1.144409E-005	7.51242E-005	-0.0003851	-1.931191E-005	-4.231931E-005	-0.0002354	-2.75746E-005	-1.263619E-005	-4.22001E-005
	30	674	0.0100011	0.001682	-0.0019729	1	0.0025926	-49.55145	-0.0019288	3.003135	12	2.121611	0.0055021	-327.7158	3.618074E-005	0.0064389	4.170767	-191.981	-0.3718952	-0.3311944	-0.0068405	-0.0004546	-0.0008948	-0.0030468	-0.0000978	3.648642E-005	8.773804E-005	0.0003676	0.0001105	6.1322E-005	-3.123283E-005	-1.817942E-005	0.000173	-0.0008818	-1.430512E-005	-0.0002067	0.0002429	5.375221E-005	-4.529954E-006	5.763769E-005	-8.657576E-006	0.0002028	1.740456E-005	5.912781E-005	-7.884205E-005	-1.119822E-005	-2.384186E-006	3.790855E-005	0.0001696	-0.0004945	-1.978874E-005	-3.516675E-005	-0.0002115	-9.229035E-005	1.645088E-005	-2.729893E-005
